Qvector_A	Intensity	Uncertainty
0.0001016494667810707	90366651.04358347	1244405.556634186
0.0001099481465713339	54259272.38375606	4627038.422481388
0.0001141165783665173	45589003.91858969	10135792.8119202
0.0001182962784671435	38297744.39401965	13072170.57352899
0.0001224871311479917	32977082.46573037	9910809.624735858
0.0001266890263008077	28881270.02653922	4338670.254587884
0.0001309018589888797	25711261.89319892	1223284.711535429
0.000135125529054075	23223940.58393531	558481.5031470703
0.0001393599407621501	20861410.62278775	513572.8311487614
0.0001436050024853446	19536457.8627717	475815.8095849664
0.000147860626415	17726150.60885859	441161.8673608269
0.0001521267283051931	16455573.03298052	404496.3317898689
0.0001564032272371561	15438230.45154379	364198.8316098875
0.0001628385766660922	13953477.12245401	330482.4655081946
0.0001692943426546553	12837317.16961737	313733.2348010801
0.0001736116800288589	11840694.36660831	306307.4564231646
0.0001779390529156152	11159285.84385746	292330.7898288735
0.0001822763964749876	10690186.14095978	269006.2520093169
0.0001888021975022539	10004432.13670872	249055.8298012115
0.0001953476345999985	9271429.574596141	241686.2707907646
0.0001997242540834652	8892496.574397977	237503.8915358207
0.0002041105503280656	8511835.941035643	225106.8449869324
0.0002107092154294527	8025800.890035963	211456.5988421839
0.0002173269731462534	7583688.593889418	206846.0549453088
0.0002217514575631317	7285377.228006897	204771.0429899765
0.0002261853666682108	7042679.752085079	195748.9408816827
0.0002328549647518831	6570127.726396398	184831.7656190819
0.0002395431860082839	6340339.42060376	178416.3748535368
0.0002440143438017521	6082948.567628795	171910.2963335243
0.0002507394712837982	5787055.648501967	162163.366115207
0.000257482889349733	5544042.597702836	153508.4592417686
0.0002642490254977153	5205925.933043863	148159.5373333229
0.0002710332239089922	5067981.89729215	144875.9406666517
0.0002778398651747374	4699469.292860102	143988.9008166983
0.0002846643562313834	4561827.291347835	144291.940989924
0.0002892258605889131	4436314.497201356	141241.3409477826
0.0002960857845713969	4165791.527075682	133626.0692353472
0.0003029632968014647	4019054.18345644	124152.620707722
0.0003098626790947873	3795922.375398635	115705.7168484753
0.0003190908422968274	3539154.314389819	111494.8582989199
0.0003260335970831452	3438622.403206779	111270.4350399156
0.0003329978626271554	3173455.60020442	110845.8042106667
0.0003399792560208174	3161643.680924005	108605.8549234409
0.0003469819614193441	2965061.085125149	105067.2352671199
0.0003540016402722026	2891290.60046428	99577.19426096021
0.0003610424436187852	2693313.753602303	93484.08535131344
0.0003704582080272274	2504384.231186269	90114.45644920644
0.0003775409642993629	2488406.814914674	88031.31780160186
0.0003846445549446287	2380349.181277132	83472.38637725632
0.0003941436609961232	2191883.732108044	79140.21521682659
0.000403675801245526	2119020.850594819	78891.64952520611
0.0004108454628016069	2044144.147813962	78916.11804963122
0.0004180355934280265	1931195.733886168	74533.20867695933
0.0004276496134015849	1814358.129563471	68438.26631895753
0.000437296116733173	1705289.768504677	65951.8891353072
0.0004469749573151685	1610290.344693587	67300.0113838495
0.0004542542208879812	1561044.21118162	67617.72199877806
0.0004615535421110753	1467565.747447775	63749.03658635083
0.0004713126160497232	1374780.88532438	58146.5816259685
0.0004811035504561511	1287943.943664344	54083.72911280676
0.0004909262181719157	1210292.492323981	51618.10638015803
0.0005007804957395555	1126405.369617176	49756.73884935407
0.000510666263242073	1064271.550893114	48092.89571726011
0.0005205834041528102	1008534.973463464	46329.52751783488
0.0005305318051917585	945750.2773762633	44394.4702406962
0.0005405113561920956	870385.7280352429	42479.474550472
0.0005505219499734876	818243.2333797156	40670.19378410449
0.0005605634822238032	761348.2508023444	38954.71590457334
0.0005706358513849545	711693.629281981	37248.09427807029
0.0005807389585468187	669932.0635659642	35243.04058409172
0.0005908727073471005	613571.868621806	32899.93201488105
0.0006035844253851633	568186.6193771781	30938.14494524396
0.0006163405260107311	524765.6312897649	29613.94070308623
0.0006265807962759555	487406.670395327	27316.97890696322
0.0006368513036159335	460031.1728905891	22337.78218312506
0.0006704373421526473	402881.1207086043	15902.04701802905
0.000675632662530211	398581.9836877356	11022.55706188999
0.0006808354467885331	381777.5845093534	8615.424012648349
0.0006860456855001227	364806.551289983	7287.448003107948
0.00069649096471601	351246.5840429098	6078.286944581094
0.0007095846867256326	322666.1976728346	5129.789469460269
0.0007227277724940386	303447.6671166609	4578.602362743483
0.0007359139248748704	279015.186736626	4246.208151996552
0.0007491491556005851	259345.5678201175	3978.188566937496
0.0007624272100284343	242535.6618297668	3738.016697514466
0.0007757540726841299	224866.2350907056	3522.430698606095
0.0007891235290110322	210738.3648655134	3327.559897765621
0.0008025415376209386	199933.7852926883	3140.676670968473
0.0008160019218176817	186643.41289858	2941.000528314291
0.0008295106155154819	177588.9972078807	2742.606435746004
0.0008457788654862296	165763.880727017	2586.591162200479
0.0008593838082403024	153554.6352740028	2458.323067828536
0.0008730366971727208	143949.1072331231	2324.8277544435
0.000889477557436917	138429.6148515275	2210.263362438031
0.0009032259975497604	128447.7174728612	2111.634546847001
0.0009170220486057097	124039.5188397255	1981.750746024787
0.0009336343119076907	116904.442993778	1835.006316167719
0.0009503105589629216	110301.0917233788	1719.800846560792
0.0009670506373439643	104179.7126126639	1637.770190931774
0.0009838543989212295	98941.15775467387	1566.795328294145
0.001000721699704937	93622.86442916363	1499.354492650439
0.001017652399697187	88662.97185991491	1439.667538349484
0.001034646362751297	85253.432410158	1389.406814137445
0.001051703456435313	82010.15886934834	1342.184608822468
0.001068823551905314	77581.77800933333	1292.70248362714
0.001086006523782227	73994.0486487387	1243.032824412302
0.001103252250036244	70718.43967097197	1196.022328271545
0.001120560611875515	66605.35595534036	1148.722137723852
0.00113793149363848	63434.54407318518	1093.269634331452
0.001155364782695652	59840.37678735368	1029.732772313808
0.001175784364490015	57074.9891749339	975.5806074380187
0.001196284541304016	54378.36344993739	941.2757082611631
0.001213925078213661	50531.84916672012	908.9206938498889
0.001231627567093268	48105.157705511	862.0061567078665
0.00125236064149946	45959.58603300955	810.813657007059
0.001273173752930579	42844.00441959782	769.5771863080943
0.001294074751233948	40749.64436603799	736.7033072833616
0.001315055510796296	38759.70151340091	704.2788750949951
0.001336123862725357	36360.96338273741	669.2133980729209
0.001357271715953911	33102.65846822841	634.176903973877
0.001378506883855112	31544.080135815	601.8694408949209
0.001399821307879185	29788.68546219554	568.9113631980811
0.001421222784617497	28141.85872024875	531.6231871368429
0.001445780950643398	26122.13545021328	496.4743409926596
0.001470447320509322	23853.54246139001	471.2096061311966
0.001492117056399637	22520.64979033821	450.079845462176
0.001513873332190415	21247.82377366352	424.3563910992464
0.00153883641457817	19884.61382753785	397.4635718721008
0.001563907099661106	18807.88022539217	376.2594324331243
0.00158908523922031	17799.60708542247	360.0299482180444
0.00161437068980448	17003.16519253849	345.4941000515419
0.00163976331257328	15845.85872809981	332.5589583956603
0.001665262973148945	15187.37586851217	321.9586282948608
0.001690869541475402	14620.95951966211	312.7117349400507
0.00171658289168043	13987.35774568238	303.5823866197347
0.00174240290194822	13296.33535383467	294.3190381721132
0.001768329454392102	12795.44928821039	284.3266769558916
0.001794362434936506	12488.89638696311	273.3815786072585
0.001823779104598231	11948.73553959168	263.7326166122515
0.00185332520297491	11416.2129201647	256.3660915120166
0.001879703330951486	10953.24404030045	248.2583092638146
0.001909507884641392	10460.18234854713	238.0932120742622
0.001939441474352572	9857.5119673347	228.24989238709
0.001969513890007425	9332.96311832916	219.8199634484864
0.001999715093859771	8931.406041818311	211.8192278221343
0.002030054866761712	8329.877011376277	203.4196785827174
0.002060523198315106	7999.944715789833	193.9657733266271
0.002091129861102396	7521.667956659533	183.9127224650834
0.00212529083425284	6898.050229652	175.4661404880842
0.002156173815612974	6571.645364013792	169.1018519627851
0.002187194793547577	6360.70943488097	162.6071766581443
0.002221815760392198	6153.945756640185	155.2494881471157
0.002256600765731559	5610.17275466302	148.5380094445769
0.002291549689809204	5479.802392702033	143.329412236639
0.00232666241834139	5180.129201017367	139.1320047314401
0.002361938842348353	4956.429588123822	135.2597942390085
0.002397378857993822	4742.666125632226	131.478503886774
0.002432982366428364	4555.223348982135	127.7871125538307
0.002468749273641963	4377.491373535419	123.9468269450574
0.002504679490320164	4139.964742305863	119.4133468095093
0.002540772931706754	3955.379485772934	114.2499856284836
0.00258066713546981	3755.755152547757	109.6180165599851
0.002620752664217358	3573.156483001785	105.9217621795524
0.002657367905868378	3356.451419920426	102.0439393896735
0.002697835822285917	3182.827174915311	97.71239632484077
0.002738494811988265	2976.392170484122	93.93672709124627
0.002779356736628172	2855.184211800854	90.86128144086734
0.002820409588311236	2751.229795235481	87.65786184811719
0.002861665230529884	2578.097428084308	84.29901834353295
0.002906892538605562	2479.6482190322	81.57095641584428
0.002948553568941083	2343.692167795853	79.2539054585917
0.002990417207544382	2274.865755189623	76.3713798398213
0.003036307602998967	2153.939121467716	73.10576827881393
0.003082431915280385	2031.056811277095	70.30426187844496
0.003128790095070974	1969.49335856271	68.02121439662
0.003175382099088842	1836.909837759131	65.93787639185805
0.003222207889909584	1766.086145091348	64.04594636904685
0.003269267435792735	1685.102882484155	62.36809115035604
0.003316560710518662	1601.591959537613	60.70183310912918
0.003364087693231076	1552.235411857303	58.75538015842218
0.003411848368283549	1460.378774419974	56.46441020036064
0.003463856318697998	1409.107238273619	54.16305213508359
0.003516131481858151	1325.302974334856	52.18822623940017
0.003568687921266253	1269.83447843557	50.51356960517799
0.003621511578924187	1206.414419568673	48.97639359737899
0.003674616531522218	1138.438911261058	47.45662492494257
0.003727988732029926	1094.251357544573	45.8101498403543
0.003781642270862764	1028.746985660671	44.11109508301747
0.003839726018996051	968.2381521455106	42.72468527291266
0.003893942334513642	924.7033348151608	41.68591827295681
0.003948440100148718	905.1118461560757	40.5961162746259
0.004007433154908593	879.3212331492883	39.27983145626305
0.004066744582850028	828.9924848635308	37.85959761853101
0.004126374454905398	774.6595450898986	36.59406629168115
0.004186322848428526	737.7445058710364	35.80381909558281
0.004246589847011277	692.5899076315238	34.53480016725267
0.00432466358198633	661.1135388042901	30.09300138274716
0.004411765440930802	600.9338866650418	21.78004094148747
0.004442460665595266	571.5844484778495	13.27489931439841
0.004499663587184387	566.8778452365849	8.24223606794874
0.00456600888901073	540.1280674609429	6.468404784024662
0.004632712537267524	515.6250054830032	5.974901727278128
0.004699790976274316	491.6763996303188	5.694188449125472
0.004767228066152295	456.8989434614095	5.416557015583477
0.004835040278220382	445.7428279378505	5.134126209257413
0.004907773628086814	418.8494872765717	4.878810892147354
0.004980924916045974	389.4042137452716	4.66877825579086
0.005049879933820703	381.2181644190056	4.455431429048796
0.005119210837187876	343.6224907018366	4.200088352913895
0.005193564965492346	321.9677904240479	3.945969501507975
0.005268337936645798	320.9997140650611	3.735748801608638
0.005348248067504139	305.9806195708424	3.561953189483902
0.005428622340985796	274.8147611860384	3.414872997406573
0.005504705839489883	272.2823168591552	3.284847143783897
0.005581209255063529	251.253814569237	3.155235305910665
0.005662959201561226	252.206249197655	3.021909447131125
0.005745174537824496	237.7060029189117	2.88370840472244
0.005827874232097378	216.2927781181259	2.741464249627554
0.005911040001130477	206.4361404199443	2.605022446136984
0.005994690854709286	198.5176671041409	2.479606045270336
0.00608377637293022	188.3443564222736	2.373172466282057
0.006173396118233106	175.3418624481082	2.293719230170336
0.006258523247969097	177.3801508335622	2.216613311900623
0.006344137041842927	162.4276239251757	2.106472708545096
0.006435302668297513	153.2587105444715	1.972379498665394
0.006532119822894018	141.6984526040033	1.855153776326063
0.006629524288190241	133.6790901595527	1.770963609567448
0.006722359120948658	127.9027646534778	1.697849218800954
0.006815731489174055	120.7211265383037	1.61503831366608
0.006914880187251529	112.5778183234871	1.532005415959131
0.007014618431385852	105.3292162705919	1.466490024884692
0.007114967890756538	105.6279004144345	1.414942737665098
0.007215908088956145	97.01544570530012	1.360824544170609
0.007317460752599125	94.69143008963636	1.29749289419014
0.007425003680817823	87.56979060629902	1.232645061072311
0.007533214970058301	82.41144540123049	1.175520446528146
0.007642095365432059	79.15502000771467	1.127406929108255
0.007751645619931963	73.03758703998437	1.086357999149936
0.007861866494213212	72.36519395107882	1.051004111896889
0.007972758756377962	68.04519348431486	1.014348334803072
0.008084323181770664	65.68141296286458	0.9649087137393475
0.008196560552779043	57.67295570297387	0.9040069844834501
0.008315140816212617	52.37262075123107	0.8527218308779311
0.008434452988958051	52.1499818620921	0.827293333127558
0.008554521625207669	53.14112647470194	0.8148277846434664
0.008675324007646118	51.63235311056064	0.7870162969296451
0.00879688476505487	45.88633772976896	0.7359494735214781
0.008925029655160456	38.96539888810351	0.6838904848190561
0.009053996008306609	38.6170390934982	0.6502316794691498
0.009183784935319062	39.95045116144055	0.628172060205918
0.009314397555030374	33.01759295414617	0.6064862003317912
0.009445834994057857	34.40458627892991	0.5855074781378875
0.009578098386584291	32.57409532277791	0.5650061080167482
0.009717264672592507	31.00008736703709	0.5438219142836016
0.009857323145397785	27.65009141633999	0.5252459392476182
0.00999214673358487	28.40458773703851	0.507400312740514
0.01013399343667665	27.30802565508397	0.4841263984375428
0.01028296993693761	23.10102139814559	0.458115523978445
0.01042666288992532	22.43262975858669	0.4370940921052998
0.01057128105113272	21.0516101495589	0.420598281947542
0.01072315386338986	22.02526454197558	0.4017317150660196
0.01087602272666426	17.83741755529727	0.3799099629316308
0.0110298892014932	16.73543476452759	0.3631770230079595
0.01118475485626605	17.6454462366214	0.3552985488755504
0.01134062126700467	16.39663848752237	0.3493658881317817
0.01150405525339697	17.656251462367	0.3385598550200065
0.01166856412035528	13.47092132638702	0.3253411452914097
0.01183417874912377	14.48757820968023	0.3142047745449446
0.01200087183080292	14.39225995875103	0.3027498984523651
0.01216867435920028	11.8238297148508	0.2886680574048432
0.01234434478021749	12.13695967544706	0.2756103287939838
0.01252120343524781	11.57434561166207	0.2654133713139154
0.01269925239922907	10.3987079492179	0.2562475926634168
0.01287849375521889	10.15797000226291	0.2476555678403948
0.01305892959416532	9.364755302609739	0.2384666488730749
0.0132405620146808	9.659515383922573	0.226971161053962
0.0134304570495005	7.054955151514021	0.2171720894492801
0.01362163113067069	8.07843586040754	0.2134616006346382
0.0138141186386693	9.051241410540129	0.2104336247636589
0.01400788989215316	6.998921168338052	0.2018011948178701
0.01420297940491868	6.368908009298915	0.1917633484830895
0.01440666410323321	6.65769750124836	0.1852235985564107
0.01461175449066328	6.792354424157896	0.1793714641429343
0.01481825325819768	5.15688086359387	0.1720766606801714
0.01502616310475604	5.695848533864142	0.1652629315508643
0.01523548673696197	5.238204783378881	0.159055195595935
0.01544622686891591	4.601871867355546	0.1527384808700202
0.0156659983911761	4.598120904796271	0.1474023797095763
0.0158872778154826	4.402144357621011	0.1424507512915319
0.01611010328361918	4.406793135950396	0.136432432090026
0.01634221498760453	3.289125044433402	0.1318851714171551
0.01657596903859594	3.898929502523071	0.1310769866750166
0.01681136882637196	4.219695076110786	0.1302915645251606
0.01704841774870746	3.231194681887804	0.1261046744068292
0.01728711921113486	3.25082826727539	0.1204966922920523
0.01752747662671323	3.224341385051764	0.1158377853651149
0.01776949341580245	2.790223940896534	0.1130508758622162
0.01802133390212684	2.798109782751225	0.1128683920204871
0.01827493454769751	3.471065489323442	0.112804441278699
0.01853033745475148	2.932358233575457	0.1085979656571836
0.01879584359767963	2.601006485576445	0.1007527054056377
0.01906325796897501	2.218644902028247	0.09409215439552425
0.01933258476908204	2.114116263586939	0.09140977334038858
0.01960382820606337	2.435878180531514	0.0909485051150182
0.01987699249536438	2.08774820610264	0.08979554191878768
0.02015208185958548	2.037718765696618	0.08728729896201744
0.02043779888121788	1.984694882161654	0.08373686344926243
0.02072555154713644	1.82857378450111	0.0789907384490042
0.02101538610154137	1.519139307010792	0.07426872802601597
0.02131615342107307	1.323594289629729	0.07125962456184477
0.02161016602515436	1.819082935065186	0.06922966352950907
0.02190627480443438	0.9509008899615091	0.06750585707929274
0.02222260252083866	1.592364076341012	0.06694423154674126
0.02254125313619366	1.327970408276803	0.06583100546877249
0.02285306128964114	1.402256666558849	0.06126889078924222
0.02317637419098008	0.7402796281683538	0.05490059208424656
0.0235020264934961	0.9409185533188742	0.05077586215214912
0.02383006886032906	0.8419218454176179	0.04988481995715766
0.02416994814534346	0.9101874826034339	0.0510288002538414
0.02450278785405654	0.8784974343721942	0.05368691713993156
0.02483803485343312	1.073710729899406	0.05714886024742609
0.02519503800589681	1.14934663906101	0.05901981522791509
0.02632041203244972	0.4267865131670656	0.0569350998861659
0.02727201339983478	0.6805995588223251	0.05161107956869853
0.02729221386752562	0.6660423680042398	0.04589731073544863
0.02731242227172776	0.5992093715117218	0.04020045256179341
0.02733263861350226	0.6272988410875963	0.03231871531122536
0.02746428572877031	0.7245739323265339	0.02268706110174569
0.02777952791635874	0.7246236559412839	0.01508977385670882
0.02816847570976087	0.7715183803706166	0.01139056949178668
0.02856030507087953	0.5745550319003948	0.0101108881890876
0.02896546273157397	0.573886049911336	0.009629558742842551
0.02937364511683755	0.6646859271336329	0.009292132185629408
0.02978491234228268	0.5320256122810004	0.008806182969198087
0.03019921995834644	0.4395749533945962	0.008300998273846352
0.03061662836212967	0.5074192031720104	0.008043454416387198
0.03104792813217323	0.4806710750216888	0.008021358853971452
0.03148247897036931	0.453353397528117	0.008150578998368081
0.03192028942651751	0.5162943993635557	0.008340000580792857
0.03237245096411837	0.547834033290303	0.008348351265216976
0.0328280273535802	0.4730576266345086	0.008058050971838759
0.03328708387455782	0.4038315664425417	0.007638443777075156
0.03376091155553788	0.4819835388538231	0.007203422309999928
