Qvector_A	Intensity	Uncertainty
0.0001052489287183285	101442379.8312532	1287494.286989616
0.000113570562605879	57168013.17522309	4619336.642908057
0.0001177502627065059	45354052.50030652	9987745.956586462
0.0001219411153876846	37479324.10540364	12833428.3506142
0.0001261430105401712	31325946.11589824	9726521.702878041
0.0001303558432282439	27205941.70770368	4265579.84259651
0.0001345795132937699	22567651.07388339	1204278.805412922
0.0001388139250018457	20165139.44538462	539788.3263605169
0.0001430589867247109	17402736.11639267	485958.8700868773
0.000147314610654367	15689963.78908723	443950.5118382127
0.0001515807125448908	14421072.5267209	407049.0302170551
0.0001558572114768546	13177619.68086459	367276.3446004161
0.0001601440296455022	11797960.78089362	323921.2818708677
0.0001665947095300541	10610401.7854886	289287.7648847087
0.0001730656642682309	9456600.182111623	272643.24561504
0.0001773930371549882	8868490.986783631	265098.3101390637
0.0001817303807146914	8091269.823934196	251939.3859190285
0.0001860776322738167	7763997.920430328	230410.5416398644
0.0001926181750244086	7049710.539560783	210786.4793801871
0.0001991782383228431	6333494.59098352	200952.1355655746
0.0002035645345671146	6084522.158714545	193473.5246874259
0.0002079604541413872	5676834.711296306	179641.8304376089
0.0002145734512909576	5253573.852840679	166190.5475893794
0.0002212054418025152	4808570.751914209	161213.0022468586
0.0002256393509075955	4619756.395616919	158427.6057051152
0.0002300826384704419	4461886.082446224	150300.4256245703
0.0002367662148795549	4169615.077802598	141372.5572888036
0.0002434683280414718	3924878.613461546	136555.0556722929
0.0002479486913525556	3803640.754967878	131872.3044281319
0.0002546875466416405	3597981.855342768	124759.3080238884
0.0002614446145303681	3445311.182497908	118277.6932497943
0.0002682243065457924	3251290.649749076	113677.8107889626
0.0002750219883292136	3078463.494444377	110063.1433250626
0.0002818420254850889	2929998.843946549	108147.8630892285
0.0002886798448283172	2786294.626550636	107592.0077437275
0.00029325019089796	2673194.587094302	105105.6242729703
0.0003001233138819304	2496590.71071286	99197.43347524427
0.0003070139632542626	2445532.710481644	91767.70630183672
0.000313926407804767	2276569.115802418	85236.5588217359
0.0003231718910999897	2133314.68695783	81752.87861337478
0.0003301275659620373	2037415.105719916	81286.96234234067
0.0003371046840158427	1945325.11158635	81191.89359083059
0.0003440988774509439	1873404.370006976	79929.55702082728
0.0003511143191889495	1788317.870866423	77583.08268588748
0.0003581466848632899	1713957.143666044	74000.31355229868
0.0003652001148545161	1651870.036906267	70184.53449037818
0.0003746326371077918	1568587.049546587	68181.71960620381
0.0003817279050707578	1509279.799456316	66817.46399212518
0.0003888439524624328	1456778.081968923	63529.91528609917
0.0003983595964685645	1376301.108767238	60560.73041984816
0.0004079081919587753	1296637.460049983	60772.24646276991
0.0004150901447677833	1296218.788556322	60973.89579023139
0.0004222925179181938	1198596.311389787	57550.26331997012
0.0004319227981282255	1139102.489385027	52961.00514981245
0.0004415854880578976	1084152.06215656	51460.47429766301
0.0004512804439113404	1018168.755020656	52951.57830203193
0.0004585717505682066	1018585.362913483	53428.92885380704
0.0004658830726649567	939067.4264434435	50440.02978087198
0.0004756580929702776	900151.0404568171	46096.77071693078
0.0004854649096910175	848619.6932133352	43165.64446919096
0.0004953033975398451	799982.2957871273	41611.71142245191
0.0005051734348492453	758418.6025056156	40384.40225417321
0.0005150749034154548	722464.2686370632	39212.09371214924
0.0005250076883526271	690759.0964537708	38159.14490782595
0.0005349716779535969	671692.4036378488	37065.14852428106
0.0005449667635598805	606850.525527637	35399.77887523419
0.0005549928394400932	573391.6763360938	31923.32603085155
0.000565049802672488	534604.5613131137	25614.88298014744
0.0005979461027227159	464048.7585100302	18082.06189869613
0.0006030358735047547	460627.9368255867	12616.56749175041
0.0006081332526464092	450921.5716284713	10128.66152474191
0.0006132382289886427	436042.4363266323	8901.277286569613
0.0006209108604221137	417149.77998656	7708.845424981668
0.0006311662598450431	396282.2113013474	6635.037591322699
0.0006414518541191306	375036.7556362376	5895.097352721365
0.0006543527453940363	353658.1970501816	5446.150665203453
0.0006672974029130428	330508.0723620577	5166.214246572432
0.000677688038899168	315063.3358500313	4907.583252412594
0.0006907198322256766	295392.5327073136	4633.96951919142
0.0007037950021245864	274156.4807268704	4401.519141084129
0.0007142897443103548	262374.4591010775	4178.97319623781
0.0007274513014815581	244188.6434460461	3929.790197154222
0.000740655875604927	233492.2612353718	3696.634729165224
0.0007539094728635353	218002.5013497145	3494.340770092775
0.0007672058468190773	203693.6224408007	3299.948179622804
0.0007805509767135963	189475.8698975176	3112.495057843591
0.0007939386557342936	177514.3251447777	2942.316721378348
0.0008073748374595055	166921.4093226901	2782.164889348429
0.0008208533525134773	155702.9409651593	2609.652428942204
0.0008343801300086997	146978.6770824623	2432.80791814563
0.0008506700256394078	136121.6515231036	2290.946367448298
0.000864292961845078	126461.0703057316	2177.79303599815
0.0008779638008509118	121674.2407749633	2060.057947642594
0.0008944261505591063	111007.9579257116	1948.013993132574
0.000908192457370267	103012.9921762318	1841.323367306833
0.0009220063350495309	96785.65131376639	1709.382782593155
0.0009386399434776585	90243.07314659315	1564.953479320501
0.0009553374843625268	83056.12044081304	1443.747495847508
0.0009720988067269103	77194.71685704931	1348.07207673764
0.0009889237638380937	70603.6920270605	1265.533925614197
0.001005812213053677	65801.7521285691	1190.836001099702
0.001022764015674641	60507.43452646222	1121.42861769999
0.001039779036806879	56724.91211002099	1056.671647299626
0.001056857145228564	51908.99071598538	997.2550514837363
0.001073998213263994	49377.12835955496	942.1041813835433
0.001091202116663386	45831.05369827695	890.0789629204453
0.001108468734488606	42205.61295823121	842.651479780912
0.001125797949001865	39467.08718208445	799.4626843510631
0.00114318964556388	36996.09106660472	754.3275880973856
0.001160643712532906	34966.22881543111	705.0001363181907
0.001181087488749675	32796.80316139581	661.235697376657
0.001201611814807885	30229.94951835559	628.7690601627012
0.001219273013420004	28819.16322240259	599.755259817989
0.001239957999999626	26993.63444605271	571.4177342951305
0.001260723105452852	25046.7010309962	547.8777334512421
0.00127859032716625	24060.05042911928	525.034238380426
0.001299515267260474	22787.65651414398	499.3598135889355
0.001320519930533621	21773.00726113785	476.1552783603329
0.001341612145499926	20433.35237451439	457.2054209382374
0.001362783825857854	19580.27326868954	437.1004739928339
0.001384042782526214	18463.3973407919	415.0441852089539
0.00140843831619224	17323.11342028721	396.9864305367304
0.001429871415693578	16665.5781153547	383.1538810424581
0.001451391389882338	15829.0476624968	369.5418279912438
0.001476084784304367	15113.47339890654	357.6793040554195
0.001497778133690252	14629.18199763734	346.443063166989
0.001519557990986152	13896.01747044221	330.4751735194328
0.0015445479882099	13028.29549533355	312.1834515241884
0.001569645550618469	12581.71655048489	297.3639493077837
0.001594850531199883	11854.98187873144	285.9518984265011
0.001620162787669686	11239.09910497257	275.9365305232145
0.001645582182317022	10723.58074871374	266.9941001105877
0.001671108581857397	10193.81756241665	258.8527699531608
0.00169674185729336	9710.894438875121	250.7662635436215
0.0017224818837789	9232.679393631834	242.0456726336606
0.001748328540491671	8747.083906484775	232.0906404244714
0.001774281710508767	8437.334365327437	221.4005219748035
0.00180360869359813	8047.544719100425	212.2060382773444
0.001833065202213745	7660.123301357813	205.1396221044724
0.00185936377792043	7172.15967757654	198.2497670693772
0.001889078925325648	6906.793926679009	191.4178805076103
0.001918923195625956	6599.453382072925	185.3671815622192
0.001945566102951097	6198.504488755158	178.3664197182194
0.001975668249187347	5847.565124552993	169.8617457198586
0.002005899157234621	5551.929286336772	161.8530703097509
0.002036268606987027	5208.40242911553	154.9879014459077
0.002066766590965519	4908.462830879312	147.9798624582341
0.002097402880881107	4727.250446747599	140.2927988442831
0.002131596746102128	4435.093837738948	133.541313998141
0.002165954988089801	4166.94638876039	129.1723231115218
0.00219701537457481	3878.017681867768	125.6583352775319
0.002228213626535122	3764.483939588842	120.8492369496803
0.002263031425025216	3636.882081600751	115.2220362098164
0.00229801311896453	3401.350707171086	110.3034704101928
0.002333158595143088	3225.029196852448	106.4329057223232
0.002368467745623155	3099.442929724572	103.2117869328978
0.002403940467577363	2979.479542766559	100.3118625011395
0.002439576663136607	2812.948513061313	97.45740189423177
0.00247537623924078	2744.933824441935	94.13049681011124
0.002511339107497356	2606.326437171949	90.05902626871082
0.002551089755607663	2490.83083415393	86.06067413363854
0.002591031799275722	2290.798066057078	82.90317215878407
0.002627516660382807	2223.95496165497	80.01609183963265
0.002667841220524601	2132.20225357839	76.92024584868825
0.00270835691242347	1959.97630196502	74.19924979847912
0.002749075597228358	1944.747579257814	72.2186138441179
0.002789985259833748	1839.614746452917	70.64482820940822
0.002831097762987919	1789.793231530062	69.0372984521712
0.002872401110803577	1733.227196994296	67.00162225079902
0.002913907168280347	1647.581265752834	64.60773728918834
0.002959407575777221	1558.813950628393	62.38985230227171
0.003001318879398754	1508.454021437233	60.19159086658468
0.003043432729807723	1393.672968567283	57.48038072983674
0.003089596023267091	1328.740056473753	54.69927740136361
0.003135993176607804	1269.516286074585	52.57011231529502
0.003182624147536647	1218.494017020385	51.06069510674072
0.003229488899587426	1163.786798176024	49.8056413602735
0.003276587401951767	1140.847056496782	48.40632107902763
0.00332391962931507	1082.27312179661	46.67281175444433
0.003375463454232414	1016.225889383274	45.00329326402667
0.003427274507205931	1001.928459419444	43.69562288537514
0.003475346756436291	936.9398879424107	42.50012552759256
0.003527692238439091	901.8032031727164	41.36366623394453
0.003580304933637189	891.613652505121	40.29956656789473
0.00362911716309894	819.4257929992764	38.93491796399473
0.003682264311441376	801.604597388824	37.36817678203251
0.003739802659752562	757.6408323921169	36.20570083358894
0.003793512469810684	732.4124272622676	35.09290160446344
0.003847503656558369	726.6187541974443	32.58750732734017
0.003920403922619165	666.4002076331456	27.914690683491
0.004040727398408482	626.0209948404888	21.87474010393261
0.004049206956921903	592.340261694805	15.84560625165668
0.004078946066105303	576.963147766696	10.91960760574863
0.004134372992175193	563.1205535911716	7.799317107782795
0.00419436689544611	543.0491503295386	6.391209148352351
0.004259003712997229	512.1333571012829	5.898426756042822
0.004323998271630552	482.8419139735518	5.680739423632463
0.004384993856467028	473.1453593616433	5.506971361002187
0.004446308362796892	451.5513953853707	5.2998479382991
0.004512360576028242	437.7198201737862	5.067984352772642
0.004578771021191204	413.9894650111775	4.855584679875829
0.004645556131920612	401.9233183851078	4.669146496516686
0.004712699768685722	382.7613104115479	4.498211618821871
0.004780218391956434	365.0665421186334	4.338811926752234
0.004848095860770213	354.3920387400518	4.174097655079662
0.004916348662841494	341.1991092002831	3.990573130578678
0.004989552208600285	318.2547849775352	3.816074606540444
0.005063173944011222	315.9979715746712	3.681975781544286
0.005137214100443236	308.1969625942373	3.574049332019263
0.005211672916352748	288.0562077035337	3.458857460367502
0.00528655063708137	293.0270754917159	3.318991918174299
0.005361847514663015	253.6764388426868	3.164714323130844
0.005437563807637512	250.5243980006124	3.020276804015064
0.005513699780870964	244.2858991755576	2.890095061661731
0.005595059051802512	232.2014949759501	2.77109668092409
0.005676883438601096	218.9206187188738	2.67372548931163
0.005759191892494428	222.9844666099218	2.592429074251424
0.005841966135756328	206.5648116145684	2.503761311250126
0.005925225161030236	198.5925765995656	2.407249292215088
0.006013895475825424	191.7991226213431	2.321138359914907
0.006098125197848068	181.5171982395306	2.243630868770846
0.00618284084845546	175.4882164538524	2.157310992826207
0.006273054708299405	174.6288879318323	2.061651799601771
0.006363803755616073	153.0191365892283	1.971687156674891
0.006455088457006559	159.051279610812	1.891829573955102
0.006546909286292817	141.6074572386743	1.813681013977551
0.006639266724316177	139.6556991584019	1.73856486716075
0.006737343078803242	133.7426886327451	1.678307702652184
0.00683600793742516	132.0817579815595	1.631650790740554
0.006930037973173033	123.587758657593	1.585567233422313
0.007029881554469547	122.0520388615618	1.533508222515674
0.007130315368839112	118.4044483418518	1.473056036374788
0.007231361118688139	109.7188496780777	1.409006724436364
0.007338369889127665	101.2124052552253	1.357445097297733
0.007440641440277675	106.1879642455387	1.318634025421185
0.007543526871730063	95.36107925245565	1.27301339057629
0.007652474219004219	95.55674609380846	1.21370663544009
0.00776209150112956	86.83723240226001	1.152307382445199
0.007872379479514696	80.34133886522392	1.10213938802537
0.007983338922995069	80.50873753130354	1.066968763695305
0.008100575741507866	81.24196109044229	1.038481632755107
0.008218542834069188	72.20985201398406	1.005990532367873
0.008331588782203397	72.89539099432271	0.9659008817493554
0.008451019088951196	65.95863416420154	0.9231628718414654
0.008571182350969908	63.57464389130459	0.8851963122321448
0.008692103165060479	62.26435804702525	0.8527994810306931
0.008819576769527453	59.64498942346123	0.8221855482840055
0.008947870934295834	57.50949942684016	0.7920071221309399
0.009071094071626495	50.27427717730496	0.7621952524639842
0.009195078740366429	51.9821966812729	0.7315309711849802
0.009325766296983772	48.17615070502566	0.7016735425635291
0.009463282777302708	46.25031488719885	0.679058949765854
0.009601689088315895	46.70424387926854	0.6657459010139435
0.00973493008000809	42.59999676674128	0.653519549944051
0.009868999525045122	44.47721735705081	0.633647343855454
0.01001005666644733	38.76933299981324	0.6062855205704958
0.01015200872068081	39.22417681488061	0.5776735564441202
0.01029488336576952	34.3892492912528	0.5550361232261537
0.01044493411058985	35.10108583784805	0.5413368916635763
0.01059597806659159	36.50613487794359	0.5298476205270064
0.01074801677932279	32.3278780932412	0.5126824227125727
0.01090105180260627	29.86234802142966	0.4913205983935298
0.01105508469830318	30.62957585565508	0.4691242184536829
0.01121011703609021	26.04752041823538	0.4465261782636126
0.01136615039323999	25.39180181462119	0.4266823174389625
0.01152318635440895	24.18781470680454	0.4124842011647977
0.01168784061020207	24.44356290325837	0.4014079800434844
0.01185357174318103	22.62932376675979	0.3901662322565034
0.01202041069763408	21.6989027253864	0.3797033096035274
0.01219507730434618	21.74109668764413	0.3719578684601427
0.01236413752562367	20.72962257082155	0.364600796872619
0.01253431120774619	19.67865415774251	0.3525748915056044
0.0127124518201356	19.5834984353417	0.3338795852626965
0.01289178498509863	15.70462107842909	0.3125515489214858
0.0130792880244722	16.39267564789628	0.2957833741195691
0.01326806578790736	13.96163775787434	0.2867316572457572
0.01345108149692934	15.37715172690015	0.2817841106753831
0.01364241562163391	14.13784412379972	0.2766697767285559
0.01383503139945258	13.28779213166226	0.2704662345738073
0.01402896328494457	14.29655665724535	0.2628296269226805
0.01423144524249714	11.87807187499171	0.2547264208157368
0.01442801670382361	11.39014994654261	0.2486757794840247
0.01462591164859396	12.61740423340987	0.2425270405499429
0.01483251111789331	11.00697616277519	0.231970421395671
0.01504052185929421	9.351729549033642	0.2192515192724302
0.01525746095418399	9.991006790667699	0.2093267084061513
0.01547590237765951	8.624754472270693	0.2025287759635299
0.01568826469917269	8.535605618638915	0.1968851544352099
0.01590971965353525	8.344427918852737	0.1914905649454453
0.01614041072570686	8.040504589833338	0.1855398247401179
0.01636496159379567	7.433424379127926	0.177974370381601
0.01659106510394323	6.657268286493507	0.1693250770890837
0.01682657472823246	6.396552417649325	0.1620074289587574
0.01706373371387798	6.005540354927803	0.1570838839917792
0.0173025454669209	6.147014499114399	0.1527000252534225
0.01755106708973589	5.806666045453294	0.1481767710507884
0.01780134186440259	4.643406380508867	0.1453936261226668
0.01804524342058359	6.199610949954586	0.1432377713376883
0.01829903561158955	5.048197162640682	0.1384991758655811
0.01856287549420382	4.604171393004092	0.1330139050786896
0.01882027692192141	4.461968311304785	0.1300797146327534
0.0190794888066277	5.119692765155945	0.1275489268169573
0.01934893527318478	3.905770224047855	0.1224463685569305
0.01962029863986754	4.087372133750084	0.1159669320316874
0.0199021646060803	3.626111583847604	0.1103982441237956
0.02018605758200484	3.292073398635388	0.106037459238186
0.02046331771146854	3.470297117116328	0.101865336757145
0.02075127835247071	2.861040126953017	0.09835421739733441
0.02105011056360587	2.741767203618583	0.09733254346731826
0.02134224068787804	3.320724498334024	0.09721352192100505
0.0216364626947654	2.893355397170597	0.09398854567266592
0.02194176073205509	2.311827741064821	0.08790172558709364
0.02224926723046069	2.373802791448492	0.08278800100007158
0.02255898731708802	2.038900128464504	0.08021993546629183
0.02288014565991154	2.411651770580371	0.07849204205980358
0.02320363831956251	2.011362665177004	0.07631515773204839
0.02352951585502145	1.742836038979684	0.07510636902906206
0.02385773883675732	1.990015647299015	0.0754985446274441
0.024188358051488	2.156543977180902	0.07420828778146067
0.02453089416093836	1.779574383879487	0.06906944595915562
0.02487595357094338	1.163155434734417	0.06336487721632085
0.02522354242685253	1.56058388305937	0.06060444713403357
0.02558344090914326	1.399945851261102	0.06013794500313333
0.02594600030790553	1.325348287914381	0.06059840932409084
0.02630135616957491	1.336247235391248	0.06174936219082201
0.02666925712511541	1.592081700811383	0.06208953921194639
0.02704990460295363	1.347215097910157	0.05986490209133506
0.02743341256688576	1.08350805182598	0.05650936239473904
0.02781978829378389	1.06671028904556	0.05558228012904626
0.02820903906678583	1.040008615930552	0.05749690493631449
0.02894045751453235	0.723981829914488	0.0578046992387651
0.03047647383934044	0.8344391561699346	0.05334845770736365
0.0304979090572347	0.7802310452763059	0.04660482875096741
0.03051935237556449	0.6720405462011846	0.04002120131875812
0.03054080379539774	0.7784240923501654	0.03203931267478077
0.03071278264001854	0.7948672556410032	0.0225871637983683
0.03109069076171781	0.9629688490933901	0.01528924805568283
0.03152556717689699	0.8934271782180466	0.01186300053505179
0.03196370406529826	0.840871005517641	0.01045891039432391
0.03241620108775602	0.564797593677537	0.009527857943516918
0.03287211385438453	0.6463312523752717	0.008973405930382277
0.03333150765997227	0.6739817395376695	0.008652535371667117
0.03379433551267615	0.5630863023603665	0.008287690100051695
