Qvector_A	Intensity	Uncertainty
0.0001017102008990565	66259914.4116625	1168018.511564888
0.0001100088806896495	49648713.24759264	4597823.251186391
0.0001141773124845029	44467508.9827433	10285311.38019424
0.0001183570125851291	39209282.60119552	13360581.26037336
0.0001225478652663071	36617080.44991285	10159639.43866943
0.0001267497604187931	34109638.83893906	4461712.480994362
0.0001309625931068651	31429112.70880688	1277777.675991069
0.0001351862631723902	29146044.14344645	607122.4360765412
0.0001394206748804653	27147795.93626234	570067.3662263374
0.0001436657366033298	25220638.17391236	539055.2105275196
0.000147921360532985	23629225.34196816	509565.8050418052
0.000152187462423508	22619733.6681525	474202.2721549324
0.0001564639613554709	21458213.3251703	433127.739722697
0.0001628993107842419	20066729.91077528	401869.0728274331
0.0001693550767729698	18838577.88044845	392634.5452723223
0.0001736724141468434	18111185.31148275	393415.4386988831
0.0001779997870335996	17384332.9919596	382502.3843204031
0.0001823371305933019	16712659.1808165	356221.9931642319
0.000188862931620238	15748779.07099785	332693.0554590276
0.0001954083687179824	14844987.89458509	325082.4133817068
0.0001997849882014491	14231363.80789014	320270.8705806629
0.0002041712844457194	13754368.04627226	303287.9182480137
0.0002107699495472713	12862694.02911031	285078.7771783397
0.0002173877072645667	12091021.42613869	279405.8839901368
0.000221812191681115	11753844.74986223	276204.6513279862
0.0002262461007861939	11305089.61315739	263115.4786030551
0.000232915698869536	10671834.35998887	248460.8744011348
0.0002396039201262665	10133317.453536	240968.2001356928
0.0002440750779200646	9836381.296143541	232978.5306668671
0.0002508002054019455	9417663.879524209	219325.189431215
0.0002575436234677151	8894292.255712673	206500.1991592693
0.0002643097596153671	8429240.775476817	198302.8447010419
0.0002710939580269738	8059694.998633932	193260.9151410107
0.0002779005992927187	7624186.049033658	192037.648084055
0.0002847250903496945	7230857.245470528	193041.4586137378
0.000289286594706894	7155135.638931521	189329.8850021933
0.0002961465186892124	6597473.436675764	178627.4728369731
0.0003030240309191151	6458405.341908352	165178.7177876842
0.0003099234132127673	6042302.156169241	153131.0918387553
0.0003191515764148071	5632691.271757997	146235.64960055
0.0003260943312014545	5402565.918995804	144601.3738783918
0.0003330585967452995	5141261.766112654	143392.7034910862
0.0003400399901387961	4912443.768869146	140140.9653459569
0.0003470426955371575	4631873.106151704	135274.9848110451
0.0003540623743901807	4397430.004401935	128097.7948148627
0.0003611031777367629	4184019.250597893	119951.1282398932
0.0003705189421448748	3860350.501972095	114623.4456333639
0.0003776016984173398	3661638.167858993	110637.5520360409
0.0003847052890626053	3487564.065240019	103711.5203810061
0.0003942043951142642	3222604.010832584	96894.33079384483
0.0004037365353635016	3010007.152822556	94701.67510536166
0.0004109061969192522	2869849.982818003	93196.99189923622
0.0004180963275461663	2700116.01965224	87420.82120119315
0.0004277103475193942	2511489.026252372	80141.78706034549
0.0004373568508508167	2348720.017459143	76723.03052107873
0.0004470356914333066	2161704.023261072	77308.93831963194
0.0004543149550062839	2063712.579186219	76854.64269601682
0.0004616142762292125	1947104.948067134	71994.18437202316
0.0004713733501678597	1806535.724136411	65316.1463275135
0.000481164284574452	1685925.721099082	60408.27891489159
0.000490986952290051	1568828.969483956	57250.68905060846
0.0005008412298575252	1454745.590371465	54635.58035913178
0.000510726997360207	1347210.84614372	52297.65734173634
0.0005206441382707785	1258372.379677213	50043.81874021173
0.0005305925393097262	1174385.577744208	47579.11014928855
0.0005405720903098976	1070849.495940166	45070.73863830828
0.0005505826840912888	1000696.75304913	42821.0083222729
0.0005606242163416037	933456.6520837179	40785.96096956266
0.0005706965855025892	861854.0925718104	38791.54073259718
0.0005807996926647825	799732.2832504287	36647.72749938678
0.0005909334414648986	745885.7971008747	34281.31154565833
0.0006036451595030154	692416.8947533669	32252.97812651746
0.0006164012601286922	637553.2916566993	31130.94749016871
0.0006266415303937507	599828.4620693011	30291.74697235375
0.000636912037734058	566660.5939164722	28881.31058062996
0.0006497941302636418	529183.0792720645	27384.90927160433
0.00066272004736758	489113.505209388	26575.9960534354
0.0006730957364593853	463796.0733451452	25944.89765351307
0.0006835013002626132	444178.8181325883	24673.37827045758
0.0006965516988341839	411706.2338950179	22935.96124659546
0.0007096454208435855	385291.9724520408	20991.49811261317
0.00072278850661188	362830.3580755543	18245.40859405903
0.000749240478121296	336399.4219546765	14378.99425143351
0.0007704767522828085	310215.1854541441	10442.47916274406
0.0007758123728946834	310035.4302804579	7707.220511866883
0.0007811552952293961	301749.2207579367	6156.240351292628
0.000789184263128812	287968.8414153621	5085.794548969034
0.0008026022717385521	272325.168930839	4286.699614138772
0.0008160626559357883	262464.3792192814	3816.002359660231
0.0008295713496332024	246783.2583396327	3553.428501245461
0.0008458395996039482	234891.1823977663	3387.663775576436
0.0008594445423579093	224388.2429319025	3263.450982971254
0.0008730974312905461	216094.5605265034	3132.422184821825
0.0008895382915546304	204744.5324068811	3012.142584645188
0.0009032867316675272	195564.3826607659	2890.057972873341
0.0009170827827237497	184903.3024712884	2707.566947576945
0.0009336950460257287	174293.7912711537	2497.668559728477
0.0009503712930810675	163468.5148875518	2333.562820151881
0.000967111371462218	155848.6726141124	2214.685539711729
0.0009839151330392612	146540.7640402383	2107.5232717844
0.001000782433822746	137547.0358444333	2000.457868000807
0.001017713133815214	128582.8429293291	1896.822455506869
0.001034707096869322	121081.1509239093	1800.02213163922
0.001051764190553225	114044.6848137169	1708.290287396659
0.001068884286023004	106705.5410345481	1620.121215810478
0.001086067257899914	100234.7310286946	1537.979160936054
0.001103312984154259	94728.80081375805	1462.787111112419
0.001120621345993527	88567.55068094717	1390.08445237825
0.001137992227756489	82942.20220185567	1310.213147472131
0.001155425516813439	78216.46692946229	1220.514351951267
0.001175845098607827	72948.23936562601	1140.405324366493
0.001196345275422127	67868.75738523394	1086.872595739979
0.001213985812331659	64029.28780169195	1042.292938309424
0.001231688301211152	60338.76506864512	983.9632427936581
0.001252421375617094	56895.2435663978	920.1002541662401
0.001273234487048237	53473.04461503459	867.0570692395996
0.001294135485351822	50110.0574664271	824.6026626347266
0.001315116244913946	47524.2282936314	786.2056623112868
0.001336184596843306	44721.12549070262	749.5413305133719
0.001357332450071774	41755.17521870819	715.0598048714487
0.001378567617972724	39642.99003475581	681.6716644366604
0.00139988204199693	37214.76258275055	644.5397492879506
0.001421283518735513	35309.77356981341	602.7990198332482
0.001445841684761492	32836.72390736116	567.1554191874834
0.001470508054627245	30772.39900082413	545.7502431095654
0.001492177790517364	29484.60591147041	528.0782354613884
0.001513934066308496	27858.64173881909	501.0954008750707
0.00153889714869608	26410.88833813971	469.3816849361345
0.001563967833779011	24636.65559336799	443.4441917265558
0.00158914597333821	23280.06363852725	424.0944848686441
0.001614431423922457	22272.16198119825	407.3741670317306
0.001639824046691169	21019.03379525591	391.8078534573314
0.001665323707266911	19744.53326977605	377.4881440749982
0.001690930275593115	18946.48244364331	364.1151408674068
0.001716643625798301	17798.67609812869	351.2664830506133
0.001742463636066003	16836.25761643451	338.4479614328209
0.001768390188509714	16292.5170733057	323.8869494870727
0.00179442316905403	15298.23348457339	306.9512680558038
0.001823839838715797	14450.73370123792	291.424843710912
0.001853385937092666	13650.5201792886	279.8004116910205
0.001879764065069483	13016.33822184858	268.5801188663204
0.001909568618759266	12161.56817582895	255.3620533672938
0.00193950220847039	11385.75436087656	242.4623888160499
0.001969574624125151	10713.4667944495	231.3515271596552
0.001999775827977407	10150.93844833805	221.2010075228321
0.002030115600879357	9360.529113168706	211.4730283350022
0.002060583932433055	8979.667087711992	201.8140268723939
0.002091190595220288	8638.797258988887	192.3993442240847
0.002125351568370656	7884.263312237083	184.6159575082746
0.002156234549730979	7640.745600153205	178.1669184570289
0.002187255527665573	7250.759668776215	170.9972884870985
0.002221876494509722	6910.582238110257	163.4247791657882
0.002256661499849139	6646.288868101493	157.1788891391612
0.002291610423926904	6326.254998910916	152.083218528842
0.002326723152458816	5986.97446637096	147.1375174092693
0.002361999576466031	5669.119115969943	142.1814327727993
0.002397439592111225	5415.438950919809	137.4061275394981
0.00243304310054602	5153.823910063152	132.8012879214852
0.002468810007759804	4846.704157851967	128.1609412959586
0.002504740224437796	4639.5453456299	122.946576857631
0.00254083366582411	4413.549763135091	116.9825921427579
0.00258072786958746	4070.356511409729	111.5197373895263
0.002620813398335016	3864.162021320179	107.5258572017535
0.002657428639985892	3746.334923081618	104.0354634222584
0.002697896556403305	3532.757201127456	100.3008905432471
0.002738555546105683	3382.664720062885	96.87454320889518
0.002779417470745861	3200.253718263377	93.87463263514363
0.002820470322428689	3054.023063364687	90.76402893103601
0.002861725964647432	2975.593080215269	87.56539778620005
0.002906953272722818	2779.676328699612	84.75757187652241
0.00294861430305842	2661.028557068123	82.05479574404015
0.002990477941661659	2497.115785979677	78.80206775719145
0.003036368337116116	2402.483354483632	75.3621082686966
0.00308249264939757	2284.239422146496	72.34085433407554
0.003128850829188084	2177.966567247386	69.54623326185384
0.003175442833206428	1989.103123007158	66.84541601756743
0.00322226862402682	1907.977290975322	64.56517282376052
0.003269328169909675	1821.432359146539	62.77862726148353
0.003316621444635911	1737.911341469051	61.13006197306166
0.003364148427348303	1674.161318748187	59.19420012086827
0.003411909102400535	1590.034175372727	56.85656183106336
0.003463917052814944	1502.217302751513	54.49940057238982
0.003516192215975144	1428.352594933396	52.50503965339404
0.003568748655383669	1382.024791982342	50.77536196076555
0.003621572313041294	1273.531006965796	49.06174384347487
0.003674677265639488	1232.856344589367	47.27749692534548
0.003728049466147146	1141.720200656824	45.44837665362121
0.003781703004979791	1083.920139663052	43.78973705765929
0.003839786753113331	1047.312008502576	42.48859194111392
0.003894003068630503	987.0415018573098	41.2557334097373
0.003948500834265564	931.5163324118116	39.73102308999763
0.004007493889025456	908.9072134154328	38.08401965040299
0.004066805316966953	836.357134208815	36.62801135388688
0.004126435189022103	804.9206825156123	35.38772193050254
0.004186383582545244	761.5501367712337	34.26709007852237
0.004246650581127915	719.7432529629907	33.14136218847861
0.004307236274422845	702.8156873616541	32.06388766703289
0.004372507347057845	655.2833787417069	31.45137497092306
0.004438136367617009	609.3779515452395	30.63566744732325
0.004530762543531436	567.6004928752965	26.98705100794283
0.004597137170424597	534.133675211299	19.54987643043906
0.004632773271383978	553.9326803965899	11.71099134186786
0.004699851710391069	492.4304465145249	7.032560490245682
0.004767288800268711	454.4121736526502	5.38361560492734
0.004835101012336718	449.9284007943624	4.920179066946281
0.004907834362203186	409.1710017896968	4.690082162105574
0.00498098565016209	400.7405661854431	4.535881893405895
0.005049940667937076	396.9026780113316	4.384708469534907
0.005119271571304105	356.2950221275607	4.174593737449484
0.005193625699608648	346.3596040102521	3.937633201221543
0.005268398670762006	331.5451781512069	3.7248037052846
0.005348308801620393	314.3936805805131	3.553840710642926
0.005428683075102096	297.4568179151992	3.422640188038891
0.005504766573605839	284.0387279932718	3.294397561708089
0.005581269989179387	272.7469178253623	3.127554388337556
0.005663019935677064	249.7615859680336	2.938563169178138
0.005745235271940188	232.2106263087639	2.778790052352377
0.005827934966213087	226.537319779435	2.663923687033883
0.005911100735246327	217.4449126491431	2.562394968915386
0.005994751588824864	208.9952518441259	2.446745865355278
0.006083837107045725	194.64688091147	2.331728257819163
0.006173456852348647	182.4969059676229	2.238050103295976
0.0062585839820845	181.916305373405	2.146884247402012
0.006344197775958215	159.0834661534334	2.036281419413246
0.006435363402412761	159.7307967153673	1.92398204614983
0.006532180557008979	151.3299420386777	1.836371332624072
0.006629585022305428	141.2117725527388	1.770065833581083
0.006722419855063505	138.5076182876715	1.700612103695194
0.00681579222328911	124.9990888507661	1.614716751416935
0.006914940921366379	122.65297156901	1.524005184636933
0.007014679165500504	110.9548417524683	1.447828760491621
0.007115028624871263	103.654720487737	1.391669576790254
0.007215968823070676	108.9897957402648	1.340941848345573
0.007317521486713621	93.91203252770624	1.280420316549147
0.007425064414932051	96.29805189605989	1.217690323451937
0.007533275704172583	83.6192623732435	1.168203429058311
0.007642156099545831	87.96431118870548	1.127852832835397
0.007751706354045857	80.29021045023373	1.08277746319945
0.007861927228327219	73.12498703115726	1.034698829063215
0.007972819490491853	70.63297101982226	0.9937353078962503
0.0080843839158844	69.44159114504288	0.9559186864589305
0.008196621286892525	63.63035936410665	0.9119377956115309
0.008315201550325878	60.37314196262621	0.8658758679970808
0.008434513723071467	57.27275392427298	0.8268792402926848
0.008554582359320932	53.87865105242678	0.7954687088160751
0.008675384741758963	51.77090762184336	0.7649617074302506
0.008796945499167576	49.95480955571832	0.7294914715529495
0.008925090389273072	45.26494414962782	0.6919226914549551
0.00905405674241898	42.56051097974656	0.6610493439167912
0.009183845669431307	41.09015114256783	0.6379993670163752
0.009314458289142517	40.86733263532839	0.6144364242369599
0.009445895728169861	35.74466943408581	0.5872633483572381
0.009578159120696065	34.10184195041888	0.5646494369060935
0.009717325406704247	34.02112895927051	0.5511427151747219
0.009857383879509261	34.71911463385685	0.5361687645316754
0.009992207467696102	29.74639994846359	0.5085369425351425
0.01013405417078773	27.74912956394043	0.4751926100282087
0.01028303067104873	25.15490448946596	0.4519197641453317
0.01042672362403593	24.49969528045752	0.4399026889871002
0.01057134178524302	26.80350043241045	0.4260354996871558
0.01072321459749997	21.07204229554509	0.405372700932236
0.01087608346077418	20.91076096198413	0.3871702303585571
0.011029949935603	20.37508065684203	0.3774585137885722
0.01118481559037562	19.99977618124434	0.3698721038708801
0.01134068200111387	20.03888794163852	0.3547630893327335
0.01150411598750617	17.25718577055131	0.3315478617284145
0.01166862485446411	14.56705617662394	0.310811632523421
0.01183423948323224	14.41703758779981	0.3013653106363197
0.01200093256491125	15.84455390487322	0.2989459985522047
0.01216873509330847	14.07372198125905	0.29300534252652
0.01234440551432542	15.07245127908364	0.2796486372564398
0.01252126416935531	10.99190322458833	0.2649758669581492
0.01269931313333615	11.9726303412673	0.2571313359859481
0.01287855448932566	11.84894518677255	0.2555032562204126
0.0130589903282719	12.00883959832792	0.2514885022966692
0.01324062274878701	10.70012885248962	0.2397135846584748
0.01343051778360621	9.792455560400418	0.223721505154236
0.01362169186477629	8.053122532136818	0.2107519018833262
0.01381417937277445	9.064782047515521	0.2035575105510237
0.01400795062625789	7.913867028266959	0.1993396143142236
0.0142030401390231	8.092913331377442	0.1953116349843974
0.01440672483733736	7.623151518101109	0.1911559850298116
0.014611815224767	7.549951640019133	0.1870483692747278
0.01481831399230095	6.879328481607708	0.1822284970034191
0.01502622383885884	7.078526701458519	0.1754328756633606
0.01523554747106437	5.819034772364051	0.1671866849780241
0.01544628760301786	5.635792406028045	0.16036739429693
0.01566605912527776	5.668711367649881	0.1562585647973376
0.01588733854958375	5.43068442100483	0.1524480799897649
0.01611016401771981	5.184323718653536	0.1461705988397054
0.01634227572170438	4.655256586129209	0.1375400866585132
0.01657602977269546	4.075387354094256	0.1293054491825057
0.01681142956047111	3.672743500116445	0.1241756137759358
0.01704847848280618	4.15847169952824	0.1222954727633277
0.01728717994523286	3.403282981868473	0.1214730003738052
0.01752753736081045	4.160428014722482	0.1190752481188532
0.01776955414989938	3.15547153840046	0.1143721312099773
0.01802139463622302	3.243258317322542	0.1094291976677738
0.0182749952817933	3.133147099044759	0.105726406577993
0.01853039818884651	3.334236862192412	0.102344411003507
0.01879590433177391	2.582132141002099	0.09911090379959543
0.0190633187030687	3.025041941644974	0.09678886603348852
0.01933264550317508	2.673202272910314	0.09472096642653308
0.01960388894015552	2.534497695752423	0.0920233483451835
0.01987705322945574	2.389075313136451	0.08856853171586193
0.02015214259367617	2.407121467791404	0.08443537751726654
0.02043785961530788	1.81030529206098	0.08080318492280254
0.02072561228122576	2.109160685014844	0.07874512355086447
0.02101544683562981	2.019827424528243	0.07711268301028212
0.02131621415516059	1.820639619480927	0.07476569787322637
0.02161022675924121	1.576870073283047	0.07187258338761576
0.02190633553852014	1.911289727046291	0.06824828432650784
0.02222266325492346	1.178113711547163	0.06464557808683763
0.02254131387027755	1.445230151358806	0.0627899600022026
0.02285312202372404	1.523154369874998	0.06175133167150348
0.02317643492506218	1.255786021411728	0.0593417523846249
0.02350208722757715	1.169843226715077	0.0565288791258091
0.02383012959440915	0.9571474504667515	0.05560037538830959
0.02417000887942232	1.398172399983469	0.05580832710842894
0.02450284858813441	1.087556281743786	0.05508793942258787
0.02483809558750986	0.8984639750050859	0.0538687814411906
0.02519509873997209	1.243899285177211	0.05317543914974236
0.02555475564643166	0.9747906361356605	0.05222940954510395
0.02590728048567432	0.9132429429478137	0.05028375590776007
0.02627226460263814	0.9960799995061217	0.04757230812691868
0.02663992218907285	0.6539791227370175	0.04483246986616281
0.02701030861864182	0.7901754666169993	0.04328378738124565
0.0273935151361933	0.7000372373680772	0.04379290881615977
0.0277795886504248	0.7394507628763736	0.04614514850597091
0.02816853644382553	1.0034123343076	0.04957167929820565
0.02856036580494286	0.6628053104955611	0.05267192823406745
0.02977277131993779	0.4848204982936546	0.05253569894523805
0.03079945988852954	0.620993210629127	0.04766657225081661
0.03082101672506639	0.5324780964278156	0.04108848272769434
0.03084258167805566	0.5575495243866513	0.03516134537989787
0.03086415474856534	0.5623242652396236	0.02785913938393906
0.03106961338321724	0.586093065215609	0.01883131880793961
0.03148253970442064	0.5460680483734137	0.0117527240529134
0.03192035016056725	0.5101379315123016	0.008545067999210128
0.03237251169816621	0.4799287305095449	0.007623405321767968
0.03282808808762586	0.4087427867910405	0.007366934900360876
0.03328714460860152	0.4679170501175878	0.007330639039309431
0.03376097228957946	0.4896372259756767	0.007225752281466811
